 #layer,P[bar],T[K],xna,xk,xsio,xo,xo2,xsi,xfe,sum
               1  0.10000000E-07   3360.5397      0.51964219      0.32720456E-01  0.52118387E-03  0.38416040      0.36404366E-07  0.36767236E-01  0.26191109E-01  0.97381150    
               2  0.12967519E-07   3391.9435      0.51972729      0.32725940E-01  0.68606271E-03  0.38405859      0.58651408E-07  0.36608508E-01  0.26195438E-01  0.97380645    
               3  0.16815654E-07   3421.8322      0.51974050      0.32726893E-01  0.71245927E-03  0.38404206      0.68562845E-07  0.36583095E-01  0.26196131E-01  0.97380508    
               4  0.21805731E-07   3430.9556      0.51979590      0.32730495E-01  0.81987005E-03  0.38397570      0.83521925E-07  0.36479664E-01  0.26198935E-01  0.97380171    
               5  0.28276623E-07   3443.3809      0.51980576      0.32731230E-01  0.83961735E-03  0.38396331      0.91099022E-07  0.36460631E-01  0.26199441E-01  0.97380064    
               6  0.36667764E-07   3451.0784      0.51982299      0.32732427E-01  0.87351127E-03  0.38394223      0.99447167E-07  0.36427972E-01  0.26200315E-01  0.97379922    
               7  0.47548991E-07   3461.4958      0.51979545      0.32730805E-01  0.82121622E-03  0.38397421      0.10048476E-06  0.36478293E-01  0.26198929E-01  0.97380007    
               8  0.61659244E-07   3464.8388      0.51981708      0.32732278E-01  0.86353436E-03  0.38394795      0.10913788E-06  0.36437519E-01  0.26200020E-01  0.97379846    
               9  0.79956740E-07   3469.7025      0.51981227      0.32732086E-01  0.85496695E-03  0.38395302      0.11346636E-06  0.36445735E-01  0.26199778E-01  0.97379819    
              10  0.10368405E-06   3474.5912      0.51980907      0.32731967E-01  0.84941140E-03  0.38395622      0.12960879E-06  0.36451055E-01  0.26199616E-01  0.97379785    
              11  0.13445249E-06   3484.5991      0.51979768      0.32731168E-01  0.82770087E-03  0.38396926      0.19775424E-06  0.36471955E-01  0.26199052E-01  0.97379796    
              12  0.17435152E-06   3493.2194      0.51976879      0.32729265E-01  0.77231422E-03  0.38400309      0.23516799E-06  0.36525273E-01  0.26197611E-01  0.97379897    
              13  0.22609066E-06   3500.7940      0.51973931      0.32727324E-01  0.71578856E-03  0.38403766      0.25345302E-06  0.36579684E-01  0.26196143E-01  0.97380002    
              14  0.29318348E-06   3529.4787      0.51980280      0.32731242E-01  0.83795177E-03  0.38396244      0.29874213E-06  0.36462069E-01  0.26199376E-01  0.97379680    
              15  0.38018623E-06   3562.6398      0.51985170      0.32734253E-01  0.93180897E-03  0.38390471      0.33475588E-06  0.36371701E-01  0.26201865E-01  0.97379450    
              16  0.49300721E-06   3586.9133      0.51990018      0.32737246E-01  0.10248107E-02  0.38384744      0.37044635E-06  0.36282152E-01  0.26204322E-01  0.97379219    
              17  0.63930803E-06   3609.2696      0.51994302      0.32739893E-01  0.11068645E-02  0.38379690      0.40253197E-06  0.36203139E-01  0.26206487E-01  0.97379022    
              18  0.82902388E-06   3625.4147      0.51998799      0.32742676E-01  0.11930023E-02  0.38374381      0.43592936E-06  0.36120192E-01  0.26208754E-01  0.97378810    
              19  0.10750383E-05   3654.2351      0.52010704      0.32750163E-01  0.14212258E-02  0.38360340      0.55923517E-06  0.35900445E-01  0.26214741E-01  0.97378283    
              20  0.13940579E-05   3719.4478      0.52032768      0.32764133E-01  0.18440738E-02  0.38334362      0.83209298E-06  0.35493328E-01  0.26225827E-01  0.97377367    
              21  0.18077472E-05   3769.3341      0.52046358      0.32772742E-01  0.21044813E-02  0.38318363      0.10212313E-05  0.35242623E-01  0.26232647E-01  0.97376808    
              22  0.23441996E-05   3790.6278      0.52064109      0.32783942E-01  0.24456481E-02  0.38297359      0.12348437E-05  0.34914175E-01  0.26241574E-01  0.97375968    
              23  0.30398452E-05   3804.5820      0.52081809      0.32795101E-01  0.27860583E-02  0.38276393      0.14446244E-05  0.34586458E-01  0.26250478E-01  0.97375108    
              24  0.39419249E-05   3804.2003      0.52107488      0.32811273E-01  0.32801978E-02  0.38245948      0.17199778E-05  0.34110733E-01  0.26263407E-01  0.97373828    
              25  0.51116985E-05   3793.3680      0.52142645      0.32833407E-01  0.39567673E-02  0.38204261      0.20762535E-05  0.33459364E-01  0.26281115E-01  0.97372068    
              26  0.66286047E-05   3767.1322      0.52195940      0.32866957E-01  0.49823657E-02  0.38141074      0.25895251E-05  0.32471944E-01  0.26307968E-01  0.97369400    
              27  0.85956555E-05   3723.0635      0.52275482      0.32917030E-01  0.65128711E-02  0.38046788      0.33320152E-05  0.30998391E-01  0.26348053E-01  0.97365433    
              28  0.11146432E-04   3667.8183      0.52397046      0.32993564E-01  0.88507597E-02  0.37902533      0.57424081E-05  0.28747603E-01  0.26409270E-01  0.97359346    
              29  0.14454157E-04   3615.7293      0.52556804      0.33094152E-01  0.11921891E-01  0.37712676      0.10900184E-04  0.25791088E-01  0.26489649E-01  0.97351282    
              30  0.18743455E-04   3566.8247      0.52730168      0.33203313E-01  0.15254427E-01  0.37506587      0.16963439E-04  0.22582980E-01  0.26576859E-01  0.97342523    
              31  0.24305611E-04   3511.3400      0.52933137      0.33331122E-01  0.19156111E-01  0.37265277      0.24265197E-04  0.18827002E-01  0.26678959E-01  0.97332265    
              32  0.31518347E-04   3444.9264      0.53165726      0.33477473E-01  0.23569424E-01  0.36983190      0.87864524E-04  0.14580381E-01  0.26795034E-01  0.97320431    
              33  0.40871475E-04   3379.0844      0.53371586      0.33606902E-01  0.27432480E-01  0.36729343      0.18558901E-03  0.10864608E-01  0.26897054E-01  0.97309888    
              34  0.53000162E-04   3326.1023      0.53532513      0.33708005E-01  0.30423070E-01  0.36528034      0.29034379E-03  0.79889869E-02  0.26976298E-01  0.97301588    
              35  0.68728059E-04   3282.7212      0.53660301      0.33788218E-01  0.32770522E-01  0.36365503      0.39997049E-03  0.57326742E-02  0.27038752E-01  0.97294943    
              36  0.89123240E-04   3246.0929      0.53763637      0.33853013E-01  0.34642494E-01  0.36231497      0.51408270E-03  0.39342512E-02  0.27088800E-01  0.97289518    
              37  0.11557073E-03   3212.2237      0.53845604      0.33903798E-01  0.35807529E-01  0.36093768      0.91576056E-03  0.28256406E-02  0.27122561E-01  0.97284645    
              38  0.14986656E-03   3178.5758      0.53922273      0.33950692E-01  0.36544979E-01  0.35930338      0.16343517E-02  0.21388642E-02  0.27147642E-01  0.97279499    
              39  0.19433974E-03   3145.1181      0.54000379      0.33998331E-01  0.37189349E-01  0.35753366      0.24704996E-02  0.15454902E-02  0.27171292E-01  0.97274113    
              40  0.25201042E-03   3110.9621      0.54080737      0.34047215E-01  0.37749849E-01  0.35561260      0.34304667E-02  0.10368535E-02  0.27193806E-01  0.97268435    
              41  0.32679499E-03   3075.1695      0.54164292      0.34097921E-01  0.38231289E-01  0.35351584      0.45272835E-02  0.60874442E-03  0.27215427E-01  0.97262400    
              42  0.42377202E-03   3038.0151      0.54250893      0.34150346E-01  0.38625162E-01  0.35123972      0.57663975E-02  0.26952857E-03  0.27235975E-01  0.97256008    
              43  0.54952716E-03   3000.4491      0.54339685      0.34203963E-01  0.38920773E-01  0.34879998      0.71422136E-02  0.29321568E-04  0.27255122E-01  0.97249310    
              44  0.71260037E-03   2965.3363      0.54782730      0.34477232E-01  0.39169873E-01  0.33556598      0.15101616E-01  0.17722139E-04  0.27308677E-01  0.97215973    
              45  0.92406587E-03   2933.4741      0.55254303      0.34767980E-01  0.39427038E-01  0.32148647      0.23566729E-01  0.94653677E-05  0.27358685E-01  0.97180072    
              46  0.11982841E-02   2901.5802      0.55902882      0.35160253E-01  0.39732216E-01  0.30218137      0.35109840E-01  0.63254745E-05  0.27345202E-01  0.97121883    
              47  0.15538772E-02   2864.8548      0.56685178      0.35630041E-01  0.40047773E-01  0.27900443      0.48910376E-01  0.51466316E-05  0.27249378E-01  0.97044955    
              48  0.20149932E-02   2822.1792      0.57560182      0.36154642E-01  0.40352476E-01  0.25319862      0.64228986E-01  0.40149279E-05  0.27073893E-01  0.96954057    
              49  0.26129462E-02   2769.2264      0.58588818      0.36770793E-01  0.40655721E-01  0.22299793      0.82104067E-01  0.29132395E-05  0.26791318E-01  0.96841961    
              50  0.33883429E-02   2700.6250      0.59849634      0.37525501E-01  0.40961396E-01  0.18614457      0.10385413      0.18434205E-05  0.26353888E-01  0.96698378    
              51  0.43938400E-02   2561.9319      0.62094892      0.38874115E-01  0.41425768E-01  0.12073883      0.14240017      0.47684717E-06  0.25483625E-01  0.96438827    
	  ground  0.43938400E-02   2353.9624