 #layer,P[bar],T[K],xna,xk,xsio,xo,xo2,xsi,xfe,sum
               1  0.10000000E-07   2773.7715      0.61917747      0.34932767E-01  0.97793678E-03  0.33739181      0.24942897E-05  0.11371877E-02  0.63814557E-02  0.99361966    
               2  0.11995350E-07   2776.7071      0.61918814      0.34933384E-01  0.99332922E-03  0.33737824      0.42131547E-05  0.11218289E-02  0.63815609E-02  0.99361913    
               3  0.14388841E-07   2781.3899      0.61919500      0.34933786E-01  0.10026252E-02  0.33736884      0.58426951E-05  0.11125536E-02  0.63816269E-02  0.99361864    
               4  0.17259919E-07   2785.4679      0.61920365      0.34934290E-01  0.10148956E-02  0.33735757      0.74216234E-05  0.11003099E-02  0.63817115E-02  0.99361814    
               5  0.20703876E-07   2789.9280      0.61921181      0.34934766E-01  0.10264442E-02  0.33734691      0.89233314E-05  0.10887865E-02  0.63817912E-02  0.99361764    
               6  0.24835023E-07   2794.3735      0.61922040      0.34935267E-01  0.10387583E-02  0.33733586      0.10358362E-04  0.10764989E-02  0.63818755E-02  0.99361714    
               7  0.29790479E-07   2798.9597      0.61922907      0.34935773E-01  0.10513006E-02  0.33732480      0.11718355E-04  0.10639836E-02  0.63819608E-02  0.99361665    
               8  0.35734721E-07   2803.6271      0.61923798      0.34936293E-01  0.10643046E-02  0.33731356      0.13003902E-04  0.10510073E-02  0.63820488E-02  0.99361615    
               9  0.42865048E-07   2808.4008      0.61924708      0.34936824E-01  0.10777076E-02  0.33730220      0.14211378E-04  0.10376328E-02  0.63821389E-02  0.99361566    
              10  0.51418124E-07   2813.2709      0.61925641      0.34937368E-01  0.10915666E-02  0.33729067      0.15339153E-04  0.10238030E-02  0.63822315E-02  0.99361517    
              11  0.61677837E-07   2818.2332      0.61926599      0.34937927E-01  0.11059181E-02  0.33727897      0.16385404E-04  0.10094816E-02  0.63823269E-02  0.99361467    
              12  0.73984723E-07   2823.3065      0.61927580      0.34938499E-01  0.11207270E-02  0.33726711      0.17346279E-04  0.99470358E-03  0.63824248E-02  0.99361418    
              13  0.88747263E-07   2828.3533      0.61928610      0.34939099E-01  0.11364267E-02  0.33725479      0.18233190E-04  0.97903651E-03  0.63825280E-02  0.99361369    
              14  0.10645545E-06   2834.2373      0.61930319      0.34940064E-01  0.11592695E-02  0.33723153      0.22999954E-04  0.95624922E-03  0.63826919E-02  0.99361330    
              15  0.12769703E-06   2843.1251      0.61933060      0.34941577E-01  0.11923958E-02  0.33719111      0.34244313E-04  0.92321336E-03  0.63829467E-02  0.99361315    
              16  0.15317705E-06   2853.7598      0.61935605      0.34942978E-01  0.12241356E-02  0.33715468      0.43659682E-04  0.89155761E-03  0.63831856E-02  0.99361306    
              17  0.18374123E-06   2864.3463      0.61938281      0.34944450E-01  0.12595754E-02  0.33711845      0.51494015E-04  0.85620655E-03  0.63834420E-02  0.99361299    
              18  0.22040403E-06   2875.3453      0.61941015      0.34945952E-01  0.12976901E-02  0.33708341      0.57558854E-04  0.81818295E-03  0.63837088E-02  0.99361294    
              19  0.26438234E-06   2886.5811      0.61943842      0.34947503E-01  0.13390404E-02  0.33704919      0.61850428E-04  0.77692720E-03  0.63839895E-02  0.99361293    
              20  0.31713587E-06   2898.0364      0.61946767      0.34949106E-01  0.13837778E-02  0.33701578      0.64325441E-04  0.73228794E-03  0.63842848E-02  0.99361294    
              21  0.38041556E-06   2909.5600      0.61949816      0.34950776E-01  0.14322654E-02  0.33698284      0.65033909E-04  0.68390302E-03  0.63845974E-02  0.99361298    
              22  0.45632177E-06   2921.0950      0.61952998      0.34952518E-01  0.14846229E-02  0.33695026      0.64002159E-04  0.63165292E-03  0.63849280E-02  0.99361304    
              23  0.54737392E-06   2932.4434      0.61956340      0.34954347E-01  0.15411194E-02  0.33691759      0.61387678E-04  0.57526955E-03  0.63852790E-02  0.99361311    
              24  0.65659416E-06   2943.3926      0.61959864      0.34956277E-01  0.16019072E-02  0.33688434      0.57420367E-04  0.51460134E-03  0.63856522E-02  0.99361319    
              25  0.78760766E-06   2953.7773      0.61963584      0.34958313E-01  0.16669482E-02  0.33685013      0.52348684E-04  0.44968669E-03  0.63860485E-02  0.99361327    
              26  0.94476293E-06   2964.0709      0.61967436      0.34960422E-01  0.17355671E-02  0.33681601      0.45810484E-04  0.38119887E-03  0.63864620E-02  0.99361337    
              27  0.11332762E-05   2970.4678      0.61970555      0.34962170E-01  0.17726240E-02  0.33676971      0.58903159E-04  0.34424572E-03  0.63867418E-02  0.99361320    
              28  0.13594044E-05   2970.7928      0.61973764      0.34963999E-01  0.17976559E-02  0.33670862      0.85529582E-04  0.31931879E-03  0.63869934E-02  0.99361276    
              29  0.16306531E-05   2968.9398      0.61977430      0.34966086E-01  0.18240948E-02  0.33663656      0.11817199E-03  0.29299893E-03  0.63872777E-02  0.99361222    
              30  0.19560255E-05   2965.9557      0.61981547      0.34968426E-01  0.18509947E-02  0.33655286      0.15763117E-03  0.26623174E-03  0.63875920E-02  0.99361161    
              31  0.23463209E-05   2961.4174      0.61986382      0.34971169E-01  0.18784012E-02  0.33645034      0.20819103E-03  0.23897953E-03  0.63879536E-02  0.99361090    
              32  0.28144940E-05   2955.0814      0.61992212      0.34974470E-01  0.19061869E-02  0.33632148      0.27442438E-03  0.21137815E-03  0.63883798E-02  0.99361006    
              33  0.33760840E-05   2946.7175      0.61999347      0.34978501E-01  0.19341676E-02  0.33615778      0.36152149E-03  0.18362088E-03  0.63888902E-02  0.99360907    
              34  0.40497308E-05   2935.8000      0.62008262      0.34983529E-01  0.19622207E-02  0.33594638      0.47726311E-03  0.15584464E-03  0.63895150E-02  0.99360785    
              35  0.48577937E-05   2921.9293      0.62019459      0.34989834E-01  0.19900736E-02  0.33567353      0.63001546E-03  0.12833682E-03  0.63902856E-02  0.99360637    
              36  0.58270935E-05   2905.1803      0.62033263      0.34997598E-01  0.20172446E-02  0.33533003      0.82550352E-03  0.10158879E-03  0.63912220E-02  0.99360460    
              37  0.69898024E-05   2885.3179      0.62050160      0.35007092E-01  0.20433337E-02  0.33490252      0.10719304E-02  0.76014928E-04  0.63923541E-02  0.99360249    
              38  0.83845124E-05   2862.2276      0.62070600      0.35018566E-01  0.20678725E-02  0.33437842      0.13770369E-02  0.52097062E-04  0.63937099E-02  0.99359999    
              39  0.10057516E-04   2836.6186      0.62095921      0.35032763E-01  0.20898200E-02  0.33372079      0.17634112E-02  0.30914084E-04  0.63953541E-02  0.99359691    
              40  0.12064342E-04   2808.2658      0.62175372      0.35077048E-01  0.20967463E-02  0.33159369      0.30377242E-02  0.26303676E-04  0.63997836E-02  0.99358523    
              41  0.14471600E-04   2778.4841      0.62273519      0.35131776E-01  0.21039581E-02  0.32896520      0.46129841E-02  0.21950255E-04  0.64052426E-02  0.99357106    
              42  0.17359190E-04   2749.4123      0.62388355      0.35195824E-01  0.21112136E-02  0.32588898      0.64570526E-02  0.18035922E-04  0.64116079E-02  0.99355466    
              43  0.20822956E-04   2721.5212      0.62518380      0.35268355E-01  0.21184523E-02  0.32240522      0.85458196E-02  0.14577680E-04  0.64187949E-02  0.99353623    
              44  0.24977864E-04   2695.1935      0.62661721      0.35348320E-01  0.21256200E-02  0.31856414      0.10849141E-01  0.11575066E-04  0.64266987E-02  0.99351601    
              45  0.29961821E-04   2670.5329      0.62816725      0.35434797E-01  0.21326938E-02  0.31441007      0.13340420E-01  0.90029825E-05  0.64352286E-02  0.99349423    
              46  0.35940252E-04   2647.3788      0.62982338      0.35527198E-01  0.21396833E-02  0.30997129      0.16002663E-01  0.68214652E-05  0.64443280E-02  0.99347103    
              47  0.43111590E-04   2625.3063      0.63158497      0.35625488E-01  0.21466332E-02  0.30524950      0.18834837E-01  0.49842856E-05  0.64539962E-02  0.99344642    
              48  0.51713859E-04   2603.6361      0.63346496      0.35730390E-01  0.21536250E-02  0.30021012      0.21857687E-01  0.34478858E-05  0.64643080E-02  0.99342022    
              49  0.62032583E-04   2581.4833      0.63549182      0.35843495E-01  0.21607731E-02  0.29477680      0.25117010E-01  0.21809549E-05  0.64754246E-02  0.99339207    
              50  0.74410252E-04   2557.6240      0.63771792      0.35967729E-01  0.21682449E-02  0.28880920      0.28697012E-01  0.11684583E-05  0.64876393E-02  0.99336128    
              51  0.89257700E-04   2531.2703      0.64019181      0.36105805E-01  0.21761589E-02  0.28217716      0.32675820E-01  0.43311974E-06  0.65012221E-02  0.99332719    
	  ground  0.89257700E-04   1921.3610 